#PPGAFF_PF1
#Upscaled from ../surface/PPGAFF/PF1.dat to radius: 69.18549113695998 bead probs: 1.0
#surf-centre-dist[nm],U[kJ/mol]
4.440892098500626e-16,0.6250346612637259
0.002000000000000446,0.6334669740552243
0.004000000000000448,0.6414242775360466
0.006000000000000449,0.64889693765506
0.008000000000000451,0.6558681009368954
0.010000000000000453,0.6623423656433371
0.012000000000000455,0.668300242422976
0.014000000000000457,0.6737234822780989
0.01600000000000046,0.6785953379146334
0.01800000000000046,0.682900307075941
0.020000000000000462,0.6866128052529354
0.022000000000000464,0.6893349287824058
0.024000000000000465,0.6912700781560854
0.026000000000000467,0.6936809734590956
0.02800000000000047,0.6948973360028039
0.03000000000000047,0.6953315341190074
0.03200000000000047,0.6948934906988862
0.034000000000000474,0.6927623405235963
0.036000000000000476,0.6908804175335297
0.03800000000000048,0.6875604059843445
0.04000000000000048,0.684966619205037
0.04200000000000048,0.6814085243199259
0.04400000000000048,0.6784577171103292
0.046000000000000485,0.6747159393861435
0.04800000000000049,0.67158419561491
0.05000000000000049,0.6676576822495123
0.05200000000000049,0.6633751084052406
0.05400000000000049,0.6603983062765892
0.056000000000000494,0.6569784082050436
0.058000000000000496,0.653053855875334
0.0600000000000005,0.6487542255532452
0.0620000000000005,0.6440392764940519
0.0640000000000005,0.6388559124108892
0.0660000000000005,0.6332790781236716
0.0680000000000005,0.6272857375557914
0.0700000000000005,0.6208979353409697
0.07200000000000051,0.6141324798400709
0.07400000000000051,0.6052668581394973
0.07600000000000051,0.5953388809022888
0.07800000000000051,0.5839176200513813
0.08000000000000052,0.5732335846058163
0.08200000000000052,0.5610156592529019
0.08400000000000052,0.5495322115181571
0.08600000000000052,0.5392891524268575
0.08800000000000052,0.5300034641459649
0.09000000000000052,0.5204391041642162
0.09200000000000053,0.510632023835524
0.09400000000000053,0.4996532198696908
0.09600000000000053,0.4866547983950158
0.09800000000000053,0.4721764337106461
0.10000000000000053,0.4575893206161158
0.10200000000000053,0.44358555984545367
0.10400000000000054,0.4303237583439746
0.10600000000000054,0.41898752586426435
0.10800000000000054,0.40567979528683373
0.11000000000000054,0.3897388976334185
0.11200000000000054,0.37439663848466553
0.11400000000000055,0.3554464681052505
0.11600000000000055,0.3363549807505559
0.11800000000000055,0.3195357800984079
0.12000000000000055,0.3035932339915024
0.12200000000000055,0.28865967637518763
0.12400000000000055,0.2669768415550935
0.12600000000000056,0.24540936146229697
0.12800000000000056,0.23106398643888515
0.13000000000000056,0.21754536530560953
0.13200000000000056,0.2037980006173843
0.13400000000000056,0.18986417010735246
0.13600000000000056,0.17572817531897555
0.13800000000000057,0.16142083970645615
0.14000000000000057,0.1469279779680479
0.14200000000000057,0.1322655446366856
0.14400000000000057,0.11539034250820623
0.14600000000000057,0.09004093244047584
0.14800000000000058,0.06341165367907142
0.15000000000000058,0.03819073280096974
0.15200000000000058,0.021713347188748622
0.15400000000000058,0.006034252262941853
0.15600000000000058,-0.009912752172001826
0.15800000000000058,-0.026042666218381916
0.1600000000000006,-0.04233244826450222
0.1620000000000006,-0.061697685897197596
0.1640000000000006,-0.08879992706388506
0.1660000000000006,-0.10739056848876838
0.1680000000000006,-0.12358415143928314
0.1700000000000006,-0.13967237613949013
0.1720000000000006,-0.15730248937991342
0.1740000000000006,-0.1835543577367147
0.1760000000000006,-0.20217037687559813
0.1780000000000006,-0.21742075866243205
0.1800000000000006,-0.23538054019985843
0.1820000000000006,-0.2610419852713739
0.1840000000000006,-0.2844295662170643
0.1860000000000006,-0.3056397275616427
0.1880000000000006,-0.3197611227850611
0.1900000000000006,-0.3337844600975376
0.19200000000000061,-0.34770860719814256
0.19400000000000062,-0.36150713264042167
0.19600000000000062,-0.3751597693506995
0.19800000000000062,-0.38867182585033977
0.20000000000000062,-0.402015453796183
0.20200000000000062,-0.41517031393070436
0.20400000000000063,-0.4281357264361541
0.20600000000000063,-0.4409026759196331
0.20800000000000063,-0.45345601500516897
0.21000000000000063,-0.465774834409256
0.21200000000000063,-0.4778600213360374
0.21400000000000063,-0.48969946745763765
0.21600000000000064,-0.5012913655314593
0.21800000000000064,-0.5126099272720674
0.22000000000000064,-0.5236583843343137
0.22200000000000064,-0.5344289085767562
0.22400000000000064,-0.5449057695100815
0.22600000000000064,-0.5551033724502439
0.22800000000000065,-0.5650064246495499
0.23000000000000065,-0.574605736888593
0.23200000000000065,-0.5839048142796543
0.23400000000000065,-0.5928988133818249
0.23600000000000065,-0.6015822415718772
0.23800000000000066,-0.6099550332194003
0.24000000000000066,-0.6180266642208665
0.24200000000000066,-0.6258052120243236
0.24400000000000066,-0.6332739055352039
0.24600000000000066,-0.6404319518706114
0.24800000000000066,-0.6472741430849115
0.25000000000000067,-0.6538097011964826
0.25200000000000067,-0.6600493471286187
0.25400000000000067,-0.6659885661828948
0.25600000000000067,-0.6716359319582114
0.2580000000000007,-0.6769915646528345
0.2600000000000007,-0.6820567320325106
0.2620000000000007,-0.6868287636490125
0.2640000000000007,-0.691319605464874
0.2660000000000007,-0.695544253384007
0.2680000000000007,-0.6994964883954443
0.2700000000000007,-0.7031890659228669
0.2720000000000007,-0.7066317844136221
0.2740000000000007,-0.7098259290544958
0.2760000000000007,-0.7127794100272815
0.2780000000000007,-0.715489251792565
0.2800000000000007,-0.7179633657558459
0.2820000000000007,-0.7202161370953799
0.2840000000000007,-0.7222378251525199
0.2860000000000007,-0.7240301702631766
0.2880000000000007,-0.7255989781839349
0.2900000000000007,-0.7269461815129905
0.2920000000000007,-0.7280777462739856
0.2940000000000007,-0.728999603305317
0.2960000000000007,-0.7297186658290572
0.2980000000000007,-0.7302433701974116
0.3000000000000007,-0.7305714554295052
0.3020000000000007,-0.7307060477606042
0.3040000000000007,-0.7306538985703835
0.3060000000000007,-0.7304316915915912
0.3080000000000007,-0.7300415352814023
0.3100000000000007,-0.7294907675580891
0.3120000000000007,-0.7287835251477103
0.3140000000000007,-0.7279227295754733
0.3160000000000007,-0.726907035282439
0.3180000000000007,-0.725744417053414
0.32000000000000073,-0.7244471826740475
0.32200000000000073,-0.7230142234010178
0.32400000000000073,-0.7214372977223588
0.32600000000000073,-0.7197359668883171
0.32800000000000074,-0.7179071403076053
0.33000000000000074,-0.7159530662061269
0.33200000000000074,-0.7138714394493404
0.33400000000000074,-0.7116711605435376
0.33600000000000074,-0.7093538269198987
0.33800000000000074,-0.706924220755185
0.34000000000000075,-0.7043785681363883
0.34200000000000075,-0.7017190835049135
0.34400000000000075,-0.6989531462107346
0.34600000000000075,-0.6960840806268425
0.34800000000000075,-0.6931132042231963
0.35000000000000075,-0.6900386977923971
0.35200000000000076,-0.6868613311606878
0.35400000000000076,-0.68357061816955
0.35600000000000076,-0.6801726298374186
0.35800000000000076,-0.6766772278907959
0.36000000000000076,-0.6730905498468844
0.36200000000000077,-0.669411640811584
0.36400000000000077,-0.6656329424914016
0.36600000000000077,-0.6617548930646584
0.36800000000000077,-0.6577752870184391
0.3700000000000008,-0.6536979831715608
0.3720000000000008,-0.6495310758283902
0.3740000000000008,-0.6452696087966698
0.3760000000000008,-0.6409154348754806
0.3780000000000008,-0.6364728208617421
0.3800000000000008,-0.6319356427034902
0.3820000000000008,-0.6273139619680452
0.3840000000000008,-0.6226017770654745
0.3860000000000008,-0.6177987038686472
0.3880000000000008,-0.6129129962639344
0.3900000000000008,-0.6079457019486355
0.3920000000000008,-0.6029097711542536
0.3940000000000008,-0.5978013435764251
0.3960000000000008,-0.5926203914267943
0.3980000000000008,-0.5873731596422029
0.4000000000000008,-0.5820555954558917
0.4020000000000008,-0.5766852778588308
0.4040000000000008,-0.5712682601056936
0.4060000000000008,-0.5658021174225426
0.4080000000000008,-0.5602814249834233
0.4100000000000008,-0.5547083996153329
0.4120000000000008,-0.5490802302326565
0.4140000000000008,-0.5433951858715549
0.4160000000000008,-0.5376461068872683
0.4180000000000008,-0.5318279226797814
0.4200000000000008,-0.5259410590953097
0.4220000000000008,-0.5199794600496433
0.4240000000000008,-0.5139489256837327
0.4260000000000008,-0.5078495628153185
0.4280000000000008,-0.5016826070510189
0.4300000000000008,-0.4954414842075181
0.43200000000000083,-0.4891400649921257
0.43400000000000083,-0.482776418983096
0.43600000000000083,-0.4763446469921284
0.43800000000000083,-0.4698491290028992
0.44000000000000083,-0.4632976930865041
0.44200000000000084,-0.456682197390031
0.44400000000000084,-0.4499915844141736
0.44600000000000084,-0.4432200929082757
0.44800000000000084,-0.43637419794724275
0.45000000000000084,-0.4294431784232786
0.45200000000000085,-0.422433908492814
0.45400000000000085,-0.41535140922990665
0.45600000000000085,-0.4082027517981936
0.45800000000000085,-0.40097989794053546
0.46000000000000085,-0.3936799935508679
0.46200000000000085,-0.38629426124400307
0.46400000000000086,-0.37882194237455896
0.46600000000000086,-0.3712688131230415
0.46800000000000086,-0.3636408355940494
0.47000000000000086,-0.35593683429676887
0.47200000000000086,-0.34816433732941154
0.47400000000000087,-0.34032734382228164
0.47600000000000087,-0.3324272619575384
0.47800000000000087,-0.32446982728649354
0.48000000000000087,-0.31646621402115716
0.48200000000000087,-0.3084081331041115
0.4840000000000009,-0.30029583122811543
0.4860000000000009,-0.29214346383080797
0.4880000000000009,-0.2839545964256245
0.4900000000000009,-0.27573292968032764
0.4920000000000009,-0.26748634869591226
0.4940000000000009,-0.2592143239067485
0.4960000000000009,-0.250916384074996
0.4980000000000009,-0.2426044785262997
0.5000000000000009,-0.23428065736231216
0.5020000000000009,-0.22595641516002732
0.5040000000000009,-0.2176305358389789
0.5060000000000009,-0.20931277688630845
0.5080000000000009,-0.2010081830330471
0.5100000000000009,-0.19272177629742776
0.5120000000000009,-0.18446447553545833
0.5140000000000009,-0.17623446951023483
0.5160000000000009,-0.16803164909240859
0.5180000000000009,-0.159858244067942
0.5200000000000009,-0.1517134326563494
0.5220000000000009,-0.14359747275594248
0.5240000000000009,-0.13551001023227344
0.5260000000000009,-0.12744948916797982
0.5280000000000009,-0.11941684889580698
0.5300000000000009,-0.11140887647419971
0.5320000000000009,-0.10342803011281061
0.5340000000000009,-0.09547960872521347
0.5360000000000009,-0.08755674623387458
0.5380000000000009,-0.07966419231606019
0.5400000000000009,-0.07180347738582554
0.5420000000000009,-0.0639722914588409
0.5440000000000009,-0.056172615837735654
0.5460000000000009,-0.04840605882422927
0.5480000000000009,-0.040668151622100183
0.5500000000000009,-0.03295914154640341
0.5520000000000009,-0.02527656556287234
0.5540000000000009,-0.017618776910120794
0.5560000000000009,-0.0099882373126488
0.5580000000000009,-0.0023862284017983834
0.5600000000000009,0.005189465413249675
0.5620000000000009,0.012739633063171711
0.564000000000001,0.020262338116379557
0.566000000000001,0.027760453684821003
0.568000000000001,0.03523011156607988
0.570000000000001,0.04268268452734372
0.572000000000001,0.0501195371223802
0.574000000000001,0.0575415026921041
0.576000000000001,0.06494877430550738
0.578000000000001,0.07234445518612986
0.580000000000001,0.07973072330051637
0.582000000000001,0.08710320208996702
0.584000000000001,0.09445877782626792
0.586000000000001,0.10179385723826223
0.588000000000001,0.10910926534767096
0.590000000000001,0.11640779986069426
0.592000000000001,0.12369271367528835
0.594000000000001,0.1309671091396949
0.596000000000001,0.13822907938239265
0.598000000000001,0.14547785468065783
0.600000000000001,0.15270992322441362
0.602000000000001,0.15992467112370218
0.604000000000001,0.16711353822753414
0.606000000000001,0.17427708454197255
0.608000000000001,0.18141850413163413
0.610000000000001,0.18853501635410147
0.612000000000001,0.1956230379377183
0.614000000000001,0.20268345640394858
0.616000000000001,0.20972004429369637
0.618000000000001,0.21672967256768605
0.620000000000001,0.22370988203282952
0.622000000000001,0.23065150821760985
0.624000000000001,0.23755354491657504
0.626000000000001,0.24441265375337531
0.628000000000001,0.25123170831815644
0.630000000000001,0.2580082341679955
0.632000000000001,0.264742496186745
0.634000000000001,0.27143493854381995
0.636000000000001,0.27807540199896713
0.638000000000001,0.2846568971283565
0.640000000000001,0.2911736618130178
0.642000000000001,0.297636119493525
0.644000000000001,0.30403703546273547
0.646000000000001,0.3103758979855759
0.648000000000001,0.31664964441195176
0.650000000000001,0.32285070032058466
0.652000000000001,0.32897402248868796
0.654000000000001,0.3350220222278927
0.656000000000001,0.3409905422243041
0.658000000000001,0.34687367598033986
0.660000000000001,0.3526675905762212
0.662000000000001,0.3583738184739952
0.664000000000001,0.36399216736877044
0.666000000000001,0.3695187428970158
0.668000000000001,0.374948890546781
0.670000000000001,0.38027961828984613
0.672000000000001,0.38551909252455563
0.674000000000001,0.39066660197960085
0.676000000000001,0.3957203514302486
0.678000000000001,0.4006788956904405
0.680000000000001,0.40554970793778267
0.682000000000001,0.4103368307984626
0.684000000000001,0.41503426177707836
0.686000000000001,0.41964658109282593
0.688000000000001,0.4241798976483104
0.6900000000000011,0.42863461958655724
0.6920000000000011,0.4330169542408993
0.6940000000000011,0.4373367146564616
0.6960000000000011,0.44159233462481096
0.6980000000000011,0.4457848772696828
0.7000000000000011,0.44991882915680637
0.7020000000000011,0.45399596542024645
0.7040000000000011,0.45802028019105706
0.7060000000000011,0.46199132632067086
0.7080000000000011,0.465911323427323
0.7100000000000011,0.46978026214325624
0.7120000000000011,0.4736024901069748
0.7140000000000011,0.4773818450596052
0.7160000000000011,0.4811177557871271
0.7180000000000011,0.48480081552900167
0.7200000000000011,0.48843529155537035
0.7220000000000011,0.49202140679292494
0.7240000000000011,0.4955648863888203
0.7260000000000011,0.4990585464793116
0.7280000000000011,0.5025020040251985
0.7300000000000011,0.5058983103149044
0.7320000000000011,0.5092383092022292
0.7340000000000011,0.5125084872083099
0.7360000000000011,0.5157074154400821
0.7380000000000011,0.5188451878499644
0.7400000000000011,0.5219244425970908
0.7420000000000011,0.5249398915510329
0.7440000000000011,0.5278845381536695
0.7460000000000011,0.5307613262649648
0.7480000000000011,0.5335682788240222
0.7500000000000011,0.5363110654843614
0.7520000000000011,0.5389813202931838
0.7540000000000011,0.5415874399463194
0.7560000000000011,0.5441299571476946
0.7580000000000011,0.5466022146732992
0.7600000000000011,0.5490070157270635
0.7620000000000011,0.5513490973834773
0.7640000000000011,0.5536246344145602
0.7660000000000011,0.5558247255976863
0.7680000000000011,0.5579556122762739
0.7700000000000011,0.5600202270154415
0.7720000000000011,0.562021725463991
0.7740000000000011,0.563958585181452
0.7760000000000011,0.5658311351945365
0.7780000000000011,0.5676449553676948
0.7800000000000011,0.5694020444653354
0.7820000000000011,0.5711058071781984
0.7840000000000011,0.5727544121546018
0.7860000000000011,0.5743526339174917
0.7880000000000011,0.5758992480387494
0.7900000000000011,0.5773936353358863
0.7920000000000011,0.5788371115915975
0.7940000000000011,0.5802344496618212
0.7960000000000012,0.5815888476893994
0.7980000000000012,0.5828926203273097
0.8000000000000012,0.5841387560061526
0.8020000000000012,0.5853284748315727
0.8040000000000012,0.5864634891509063
0.8060000000000012,0.5875460342351779
0.8080000000000012,0.5885792550817327
0.8100000000000012,0.5895615035471433
0.8120000000000012,0.5904874356700834
0.8140000000000012,0.5913536521220247
0.8160000000000012,0.5921696114352786
0.8180000000000012,0.592927847648336
0.8200000000000012,0.5936255814531127
0.8220000000000012,0.5942693366142627
0.8240000000000012,0.5948583476457829
0.8260000000000012,0.5953913687758482
0.8280000000000012,0.5958728908529711
0.8300000000000012,0.5962960206172824
0.8320000000000012,0.5966616801839169
0.8340000000000012,0.5969758159602974
0.8360000000000012,0.5972378656331949
0.8380000000000012,0.5974457532851933
0.8400000000000012,0.5975960413726996
0.8420000000000012,0.5976831211367812
0.8440000000000012,0.5977206004104757
0.8460000000000012,0.597710204897809
0.8480000000000012,0.5976570568141856
0.8500000000000012,0.5975542384049193
0.8520000000000012,0.5973922403272681
0.8540000000000012,0.5971685646555736
0.8560000000000012,0.59689139130996
0.8580000000000012,0.5965611828751584
0.8600000000000012,0.5961849241857946
0.8620000000000012,0.5957591165666275
0.8640000000000012,0.5952725442209053
0.8660000000000012,0.5947303697317661
0.8680000000000012,0.5941316332154287
0.8700000000000012,0.5934771596973022
0.8720000000000012,0.5927678838347843
0.8740000000000012,0.5920080773846328
0.8760000000000012,0.5911886099505771
0.8780000000000012,0.5903202323150772
0.8800000000000012,0.5894034829610201
0.8820000000000012,0.588436301252763
0.8840000000000012,0.5874142473225539
0.8860000000000012,0.5863339006106825
0.8880000000000012,0.5852032485276487
0.8900000000000012,0.5840199573611499
0.8920000000000012,0.5827846561455104
0.8940000000000012,0.5814920297808063
0.8960000000000012,0.5801363370645947
0.8980000000000012,0.5787115357131287
0.9000000000000012,0.5772220953171454
0.9020000000000012,0.5756693024923298
0.9040000000000012,0.5740604612703422
0.9060000000000012,0.5723943793592826
0.9080000000000013,0.5706768473349892
0.9100000000000013,0.5689183738925973
0.9120000000000013,0.5671181604856885
0.9140000000000013,0.5652855359105744
0.9160000000000013,0.5634130008338997
0.9180000000000013,0.5615069516105641
0.9200000000000013,0.559562335021901
0.9220000000000013,0.5575869641750671
0.9240000000000013,0.5555785325945523
0.9260000000000013,0.5535333107681939
0.9280000000000013,0.5514600318589502
0.9300000000000013,0.5493600189961603
0.9320000000000013,0.5472291675865814
0.9340000000000013,0.5450647590527117
0.9360000000000013,0.5428763105207349
0.9380000000000013,0.5406765206824
0.9400000000000013,0.5384716591195429
0.9420000000000013,0.5362574080934593
0.9440000000000013,0.5340411440003465
0.9460000000000013,0.5318180749977394
0.9480000000000013,0.5295757321273701
0.9500000000000013,0.5273253546556027
0.9520000000000013,0.5250723906561434
0.9540000000000013,0.5228239345183104
0.9560000000000013,0.5205880683152078
0.9580000000000013,0.5183646374906443
0.9600000000000013,0.5161491641028729
0.9620000000000013,0.5139435412128518
0.9640000000000013,0.5117487228459288
0.9660000000000013,0.5095594223890443
0.9680000000000013,0.5073804426198707
0.9700000000000013,0.5052053474656009
0.9720000000000013,0.5030363514702275
0.9740000000000013,0.5008713449221053
0.9760000000000013,0.49871791981950425
0.9780000000000013,0.49657007270374287
0.9800000000000013,0.4944211771104431
0.9820000000000013,0.4922675082849928
0.9840000000000013,0.490101415049974
0.9860000000000013,0.48792829282211936
0.9880000000000013,0.4857454386291398
0.9900000000000013,0.4835526423220546
0.9920000000000013,0.4813462411261896
0.9940000000000013,0.4791193175498106
0.9960000000000013,0.4768707856906989
0.9980000000000013,0.4745960261825997
1.0000000000000013,0.47229153553853337
1.0020000000000013,0.46995331974523846
1.0040000000000013,0.46758228188283585
1.0060000000000013,0.4651677163551514
1.0080000000000013,0.46271825839472513
1.0100000000000013,0.4602340075772309
1.0120000000000013,0.45771443606312856
1.0140000000000013,0.45516244531560435
1.0160000000000013,0.4525785973438523
1.0180000000000013,0.44996366689403716
1.0200000000000014,0.4473183302625373
